netcdf \2014-04 {
dimensions:
	time = 720 ;
	lat = 1 ;
	lon = 1 ;
	scalar = 1 ;
variables:
	double time(time) ;
		time:long_name = "Time axis" ;
		time:units = "days since 2014-04-01 00:00:00" ;
		time:calendar = "noleap" ;
	double LONGXY(lat, lon) ;
		LONGXY:long_name = "longitude" ;
		LONGXY:units = "degrees E" ;
	double LATIXY(lat, lon) ;
		LATIXY:long_name = "laititude" ;
		LATIXY:units = "degrees N" ;
	double ZBOT(time, lat, lon) ;
		ZBOT:long_name = "observational height" ;
		ZBOT:units = "m" ;
	double EDGEW(scalar) ;
		EDGEW:long_name = "western edge in atmospheric data" ;
		EDGEW:units = "degrees E" ;
	double EDGEE(scalar) ;
		EDGEE:long_name = "eastern edge in atmospheric data" ;
		EDGEE:units = "degrees E" ;
	double EDGES(scalar) ;
		EDGES:long_name = "southern edge in atmospheric data" ;
		EDGES:units = "degrees N" ;
	double EDGEN(scalar) ;
		EDGEN:long_name = "northern edge in atmospheric data" ;
		EDGEN:units = "degrees N" ;
	double TBOT(time, lat, lon) ;
		TBOT:long_name = "temperature at the lowest atm level (TBOT)" ;
		TBOT:units = "K" ;
	double RH(time, lat, lon) ;
		RH:long_name = "relative humidity at the lowest atm level (RH)" ;
		RH:units = "%" ;
	double WIND(time, lat, lon) ;
		WIND:long_name = "wind at the lowest atm level (WIND)" ;
		WIND:units = "m/s" ;
	double FSDS(time, lat, lon) ;
		FSDS:long_name = "incident solar (FSDS)" ;
		FSDS:units = "W/m2" ;
	double FLDS(time, lat, lon) ;
		FLDS:long_name = "incident longwave (FLDS)" ;
		FLDS:units = "W/m2" ;
	double PSRF(time, lat, lon) ;
		PSRF:long_name = "pressure at the lowest atm level (PSRF)" ;
		PSRF:units = "Pa" ;
	double PRECTmms(time, lat, lon) ;
		PRECTmms:long_name = "precipitation (PRECTmms)" ;
		PRECTmms:units = "mm/s" ;

// global attributes:
		:site_location = "Latitude:   42.73   Longitude:   283.34 Elevation (m):   256." ;
data:

 time = 0, 0.0416666666666667, 0.0833333333333333, 0.125, 0.166666666666667, 
    0.208333333333333, 0.25, 0.291666666666667, 0.333333333333333, 0.375, 
    0.416666666666667, 0.458333333333333, 0.5, 0.541666666666667, 
    0.583333333333333, 0.625, 0.666666666666667, 0.708333333333333, 0.75, 
    0.791666666666667, 0.833333333333333, 0.875, 0.916666666666667, 
    0.958333333333333, 1, 1.04166666666667, 1.08333333333333, 1.125, 
    1.16666666666667, 1.20833333333333, 1.25, 1.29166666666667, 
    1.33333333333333, 1.375, 1.41666666666667, 1.45833333333333, 1.5, 
    1.54166666666667, 1.58333333333333, 1.625, 1.66666666666667, 
    1.70833333333333, 1.75, 1.79166666666667, 1.83333333333333, 1.875, 
    1.91666666666667, 1.95833333333333, 2, 2.04166666666667, 
    2.08333333333333, 2.125, 2.16666666666667, 2.20833333333333, 2.25, 
    2.29166666666667, 2.33333333333333, 2.375, 2.41666666666667, 
    2.45833333333333, 2.5, 2.54166666666667, 2.58333333333333, 2.625, 
    2.66666666666667, 2.70833333333333, 2.75, 2.79166666666667, 
    2.83333333333333, 2.875, 2.91666666666667, 2.95833333333333, 3, 
    3.04166666666667, 3.08333333333333, 3.125, 3.16666666666667, 
    3.20833333333333, 3.25, 3.29166666666667, 3.33333333333333, 3.375, 
    3.41666666666667, 3.45833333333333, 3.5, 3.54166666666667, 
    3.58333333333333, 3.625, 3.66666666666667, 3.70833333333333, 3.75, 
    3.79166666666667, 3.83333333333333, 3.875, 3.91666666666667, 
    3.95833333333333, 4, 4.04166666666667, 4.08333333333333, 4.125, 
    4.16666666666667, 4.20833333333333, 4.25, 4.29166666666667, 
    4.33333333333333, 4.375, 4.41666666666667, 4.45833333333333, 4.5, 
    4.54166666666667, 4.58333333333333, 4.625, 4.66666666666667, 
    4.70833333333333, 4.75, 4.79166666666667, 4.83333333333333, 4.875, 
    4.91666666666667, 4.95833333333333, 5, 5.04166666666667, 
    5.08333333333333, 5.125, 5.16666666666667, 5.20833333333333, 5.25, 
    5.29166666666667, 5.33333333333333, 5.375, 5.41666666666667, 
    5.45833333333333, 5.5, 5.54166666666667, 5.58333333333333, 5.625, 
    5.66666666666667, 5.70833333333333, 5.75, 5.79166666666667, 
    5.83333333333333, 5.875, 5.91666666666667, 5.95833333333333, 6, 
    6.04166666666667, 6.08333333333333, 6.125, 6.16666666666667, 
    6.20833333333333, 6.25, 6.29166666666667, 6.33333333333333, 6.375, 
    6.41666666666667, 6.45833333333333, 6.5, 6.54166666666667, 
    6.58333333333333, 6.625, 6.66666666666667, 6.70833333333333, 6.75, 
    6.79166666666667, 6.83333333333333, 6.875, 6.91666666666667, 
    6.95833333333333, 7, 7.04166666666667, 7.08333333333333, 7.125, 
    7.16666666666667, 7.20833333333333, 7.25, 7.29166666666667, 
    7.33333333333333, 7.375, 7.41666666666667, 7.45833333333333, 7.5, 
    7.54166666666667, 7.58333333333333, 7.625, 7.66666666666667, 
    7.70833333333333, 7.75, 7.79166666666667, 7.83333333333333, 7.875, 
    7.91666666666667, 7.95833333333333, 8, 8.04166666666667, 
    8.08333333333333, 8.125, 8.16666666666667, 8.20833333333333, 8.25, 
    8.29166666666667, 8.33333333333333, 8.375, 8.41666666666667, 
    8.45833333333333, 8.5, 8.54166666666667, 8.58333333333333, 8.625, 
    8.66666666666667, 8.70833333333333, 8.75, 8.79166666666667, 
    8.83333333333333, 8.875, 8.91666666666667, 8.95833333333333, 9, 
    9.04166666666667, 9.08333333333333, 9.125, 9.16666666666667, 
    9.20833333333333, 9.25, 9.29166666666667, 9.33333333333333, 9.375, 
    9.41666666666667, 9.45833333333333, 9.5, 9.54166666666667, 
    9.58333333333333, 9.625, 9.66666666666667, 9.70833333333333, 9.75, 
    9.79166666666667, 9.83333333333333, 9.875, 9.91666666666667, 
    9.95833333333333, 10, 10.0416666666667, 10.0833333333333, 10.125, 
    10.1666666666667, 10.2083333333333, 10.25, 10.2916666666667, 
    10.3333333333333, 10.375, 10.4166666666667, 10.4583333333333, 10.5, 
    10.5416666666667, 10.5833333333333, 10.625, 10.6666666666667, 
    10.7083333333333, 10.75, 10.7916666666667, 10.8333333333333, 10.875, 
    10.9166666666667, 10.9583333333333, 11, 11.0416666666667, 
    11.0833333333333, 11.125, 11.1666666666667, 11.2083333333333, 11.25, 
    11.2916666666667, 11.3333333333333, 11.375, 11.4166666666667, 
    11.4583333333333, 11.5, 11.5416666666667, 11.5833333333333, 11.625, 
    11.6666666666667, 11.7083333333333, 11.75, 11.7916666666667, 
    11.8333333333333, 11.875, 11.9166666666667, 11.9583333333333, 12, 
    12.0416666666667, 12.0833333333333, 12.125, 12.1666666666667, 
    12.2083333333333, 12.25, 12.2916666666667, 12.3333333333333, 12.375, 
    12.4166666666667, 12.4583333333333, 12.5, 12.5416666666667, 
    12.5833333333333, 12.625, 12.6666666666667, 12.7083333333333, 12.75, 
    12.7916666666667, 12.8333333333333, 12.875, 12.9166666666667, 
    12.9583333333333, 13, 13.0416666666667, 13.0833333333333, 13.125, 
    13.1666666666667, 13.2083333333333, 13.25, 13.2916666666667, 
    13.3333333333333, 13.375, 13.4166666666667, 13.4583333333333, 13.5, 
    13.5416666666667, 13.5833333333333, 13.625, 13.6666666666667, 
    13.7083333333333, 13.75, 13.7916666666667, 13.8333333333333, 13.875, 
    13.9166666666667, 13.9583333333333, 14, 14.0416666666667, 
    14.0833333333333, 14.125, 14.1666666666667, 14.2083333333333, 14.25, 
    14.2916666666667, 14.3333333333333, 14.375, 14.4166666666667, 
    14.4583333333333, 14.5, 14.5416666666667, 14.5833333333333, 14.625, 
    14.6666666666667, 14.7083333333333, 14.75, 14.7916666666667, 
    14.8333333333333, 14.875, 14.9166666666667, 14.9583333333333, 15, 
    15.0416666666667, 15.0833333333333, 15.125, 15.1666666666667, 
    15.2083333333333, 15.25, 15.2916666666667, 15.3333333333333, 15.375, 
    15.4166666666667, 15.4583333333333, 15.5, 15.5416666666667, 
    15.5833333333333, 15.625, 15.6666666666667, 15.7083333333333, 15.75, 
    15.7916666666667, 15.8333333333333, 15.875, 15.9166666666667, 
    15.9583333333333, 16, 16.0416666666667, 16.0833333333333, 16.125, 
    16.1666666666667, 16.2083333333333, 16.25, 16.2916666666667, 
    16.3333333333333, 16.375, 16.4166666666667, 16.4583333333333, 16.5, 
    16.5416666666667, 16.5833333333333, 16.625, 16.6666666666667, 
    16.7083333333333, 16.75, 16.7916666666667, 16.8333333333333, 16.875, 
    16.9166666666667, 16.9583333333333, 17, 17.0416666666667, 
    17.0833333333333, 17.125, 17.1666666666667, 17.2083333333333, 17.25, 
    17.2916666666667, 17.3333333333333, 17.375, 17.4166666666667, 
    17.4583333333333, 17.5, 17.5416666666667, 17.5833333333333, 17.625, 
    17.6666666666667, 17.7083333333333, 17.75, 17.7916666666667, 
    17.8333333333333, 17.875, 17.9166666666667, 17.9583333333333, 18, 
    18.0416666666667, 18.0833333333333, 18.125, 18.1666666666667, 
    18.2083333333333, 18.25, 18.2916666666667, 18.3333333333333, 18.375, 
    18.4166666666667, 18.4583333333333, 18.5, 18.5416666666667, 
    18.5833333333333, 18.625, 18.6666666666667, 18.7083333333333, 18.75, 
    18.7916666666667, 18.8333333333333, 18.875, 18.9166666666667, 
    18.9583333333333, 19, 19.0416666666667, 19.0833333333333, 19.125, 
    19.1666666666667, 19.2083333333333, 19.25, 19.2916666666667, 
    19.3333333333333, 19.375, 19.4166666666667, 19.4583333333333, 19.5, 
    19.5416666666667, 19.5833333333333, 19.625, 19.6666666666667, 
    19.7083333333333, 19.75, 19.7916666666667, 19.8333333333333, 19.875, 
    19.9166666666667, 19.9583333333333, 20, 20.0416666666667, 
    20.0833333333333, 20.125, 20.1666666666667, 20.2083333333333, 20.25, 
    20.2916666666667, 20.3333333333333, 20.375, 20.4166666666667, 
    20.4583333333333, 20.5, 20.5416666666667, 20.5833333333333, 20.625, 
    20.6666666666667, 20.7083333333333, 20.75, 20.7916666666667, 
    20.8333333333333, 20.875, 20.9166666666667, 20.9583333333333, 21, 
    21.0416666666667, 21.0833333333333, 21.125, 21.1666666666667, 
    21.2083333333333, 21.25, 21.2916666666667, 21.3333333333333, 21.375, 
    21.4166666666667, 21.4583333333333, 21.5, 21.5416666666667, 
    21.5833333333333, 21.625, 21.6666666666667, 21.7083333333333, 21.75, 
    21.7916666666667, 21.8333333333333, 21.875, 21.9166666666667, 
    21.9583333333333, 22, 22.0416666666667, 22.0833333333333, 22.125, 
    22.1666666666667, 22.2083333333333, 22.25, 22.2916666666667, 
    22.3333333333333, 22.375, 22.4166666666667, 22.4583333333333, 22.5, 
    22.5416666666667, 22.5833333333333, 22.625, 22.6666666666667, 
    22.7083333333333, 22.75, 22.7916666666667, 22.8333333333333, 22.875, 
    22.9166666666667, 22.9583333333333, 23, 23.0416666666667, 
    23.0833333333333, 23.125, 23.1666666666667, 23.2083333333333, 23.25, 
    23.2916666666667, 23.3333333333333, 23.375, 23.4166666666667, 
    23.4583333333333, 23.5, 23.5416666666667, 23.5833333333333, 23.625, 
    23.6666666666667, 23.7083333333333, 23.75, 23.7916666666667, 
    23.8333333333333, 23.875, 23.9166666666667, 23.9583333333333, 24, 
    24.0416666666667, 24.0833333333333, 24.125, 24.1666666666667, 
    24.2083333333333, 24.25, 24.2916666666667, 24.3333333333333, 24.375, 
    24.4166666666667, 24.4583333333333, 24.5, 24.5416666666667, 
    24.5833333333333, 24.625, 24.6666666666667, 24.7083333333333, 24.75, 
    24.7916666666667, 24.8333333333333, 24.875, 24.9166666666667, 
    24.9583333333333, 25, 25.0416666666667, 25.0833333333333, 25.125, 
    25.1666666666667, 25.2083333333333, 25.25, 25.2916666666667, 
    25.3333333333333, 25.375, 25.4166666666667, 25.4583333333333, 25.5, 
    25.5416666666667, 25.5833333333333, 25.625, 25.6666666666667, 
    25.7083333333333, 25.75, 25.7916666666667, 25.8333333333333, 25.875, 
    25.9166666666667, 25.9583333333333, 26, 26.0416666666667, 
    26.0833333333333, 26.125, 26.1666666666667, 26.2083333333333, 26.25, 
    26.2916666666667, 26.3333333333333, 26.375, 26.4166666666667, 
    26.4583333333333, 26.5, 26.5416666666667, 26.5833333333333, 26.625, 
    26.6666666666667, 26.7083333333333, 26.75, 26.7916666666667, 
    26.8333333333333, 26.875, 26.9166666666667, 26.9583333333333, 27, 
    27.0416666666667, 27.0833333333333, 27.125, 27.1666666666667, 
    27.2083333333333, 27.25, 27.2916666666667, 27.3333333333333, 27.375, 
    27.4166666666667, 27.4583333333333, 27.5, 27.5416666666667, 
    27.5833333333333, 27.625, 27.6666666666667, 27.7083333333333, 27.75, 
    27.7916666666667, 27.8333333333333, 27.875, 27.9166666666667, 
    27.9583333333333, 28, 28.0416666666667, 28.0833333333333, 28.125, 
    28.1666666666667, 28.2083333333333, 28.25, 28.2916666666667, 
    28.3333333333333, 28.375, 28.4166666666667, 28.4583333333333, 28.5, 
    28.5416666666667, 28.5833333333333, 28.625, 28.6666666666667, 
    28.7083333333333, 28.75, 28.7916666666667, 28.8333333333333, 28.875, 
    28.9166666666667, 28.9583333333333, 29, 29.0416666666667, 
    29.0833333333333, 29.125, 29.1666666666667, 29.2083333333333, 29.25, 
    29.2916666666667, 29.3333333333333, 29.375, 29.4166666666667, 
    29.4583333333333, 29.5, 29.5416666666667, 29.5833333333333, 29.625, 
    29.6666666666667, 29.7083333333333, 29.75, 29.7916666666667, 
    29.8333333333333, 29.875, 29.9166666666667, 29.9583333333333 ;

 PRECTmms =
  0.000102194448312124,
  4.16666670288477e-07,
  0,
  0,
  0,
  0,
  0,
  0,
  0,
  0,
  0,
  0,
  0,
  0,
  0,
  0,
  0,
  0,
  0,
  0,
  0,
  0,
  0,
  0,
  0,
  0,
  0,
  0,
  0,
  0,
  0,
  0,
  0,
  0,
  0,
  0,
  0,
  0,
  0,
  0,
  0,
  0,
  0,
  0,
  0,
  0,
  0,
  0,
  0,
  0,
  0,
  0,
  0,
  0,
  8.33333372914543e-08,
  5.52777770078845e-06,
  1.16388892961873e-05,
  0,
  8.33333372914543e-08,
  4.58333330849806e-06,
  2.5444444682863e-05,
  0.000109638886319266,
  0,
  0,
  0,
  0,
  0,
  0,
  5.16111113958889e-05,
  0,
  0,
  4.51388872332043e-05,
  1.11111116388606e-06,
  0,
  1.11111116388606e-06,
  7.59444468551212e-05,
  6.28888896769948e-05,
  6.07777759432793e-05,
  7.22777760691113e-05,
  0.000140166663461261,
  7.22777760691113e-05,
  0,
  0,
  0,
  0,
  0,
  0,
  0,
  0,
  0,
  0,
  0,
  0,
  0,
  0,
  0,
  0,
  0,
  0,
  0,
  0,
  0,
  0,
  0,
  0,
  0,
  0,
  0,
  0,
  0,
  0,
  0,
  0,
  0,
  0,
  0,
  0,
  0,
  0,
  0,
  0,
  0,
  0,
  0,
  0,
  0,
  0,
  0,
  0,
  0,
  0,
  0,
  0,
  0,
  0,
  0,
  0,
  0,
  0,
  0,
  0,
  0,
  0,
  0,
  0,
  0,
  0,
  0,
  0,
  0,
  0,
  0,
  0,
  0,
  0,
  0,
  0,
  0,
  0,
  0,
  0,
  0,
  0,
  0,
  0,
  0,
  0,
  0,
  0,
  3.33333325882753e-05,
  0,
  0,
  0,
  0,
  0,
  0,
  0,
  0,
  0,
  0,
  0,
  0,
  0,
  0,
  0,
  0,
  0,
  0,
  0,
  0,
  0,
  0,
  0,
  0,
  0,
  0,
  0,
  0,
  0,
  0,
  0,
  0,
  0,
  0,
  0,
  0,
  0,
  0,
  0,
  0,
  0,
  0,
  0,
  0,
  0,
  0,
  0,
  0,
  0,
  0,
  0,
  0,
  0,
  0,
  0,
  0,
  0,
  0,
  0,
  0,
  0,
  0,
  0,
  0,
  0,
  0,
  0,
  0,
  0,
  0,
  0,
  0,
  0,
  0,
  0,
  0,
  0,
  0,
  0,
  0,
  0,
  0,
  0,
  0,
  0,
  0,
  0,
  0,
  0,
  0,
  0,
  0,
  0,
  0,
  0,
  0,
  0,
  0,
  0,
  0,
  0,
  0,
  0,
  0,
  0,
  0,
  0,
  0,
  0,
  0,
  0,
  0,
  0,
  0,
  0,
  0,
  0,
  0,
  0,
  0,
  0,
  0,
  1.25277777098947e-05,
  0.000710111127959357,
  0.000669138895140754,
  2.44444443119897e-06,
  8.33333372914543e-08,
  1.75000002814664e-05,
  1.91388879385259e-05,
  3.14166665905052e-05,
  1.20000003112687e-05,
  3.83055541250441e-05,
  0.00165061116218567,
  0.00248155567381117,
  0.00175130552715725,
  0.001875,
  0.00435711118910048,
  0.00317027780744765,
  0.00456602785322401,
  0.00283736122979058,
  0.00218483328819275,
  0.000548027786943648,
  0.000459055569436815,
  0.000683111084832086,
  0.000627916653951009,
  0.000430277784665426,
  0.000100583334763845,
  3.12222229937712e-05,
  0.000246722218063143,
  0.000130055555038982,
  3.95277763406436e-05,
  8.41666685624255e-06,
  0,
  0,
  0,
  0,
  0,
  0,
  0,
  0,
  0,
  0,
  0,
  0,
  0,
  0,
  0,
  0,
  0,
  0,
  0,
  0,
  0,
  0,
  0,
  0,
  0,
  0,
  0,
  0,
  0,
  0,
  0,
  0,
  0,
  0,
  0,
  0,
  0,
  0,
  0,
  0,
  0,
  0,
  0,
  0,
  0,
  0,
  0,
  0,
  0,
  0,
  0,
  0,
  0,
  0,
  0,
  0,
  0,
  0,
  0,
  0,
  0,
  0,
  0,
  0,
  0,
  0,
  0,
  0,
  0,
  0,
  0,
  0,
  0,
  0,
  0,
  0,
  0,
  0,
  0,
  0,
  0,
  0,
  0,
  0,
  0,
  0,
  0,
  0,
  0,
  0,
  0,
  0,
  0,
  0,
  0,
  0,
  0,
  0,
  0,
  0,
  0,
  0,
  0,
  0,
  0,
  0,
  0,
  0,
  0,
  0,
  0,
  0,
  0,
  0,
  0,
  0,
  0,
  0,
  0,
  0,
  0,
  0,
  0,
  0,
  0,
  0,
  0,
  0,
  0,
  0,
  0,
  0,
  0,
  0,
  0,
  0,
  0,
  0,
  0,
  0,
  0,
  0,
  0,
  0,
  0,
  0,
  0,
  0,
  0,
  0,
  0,
  0,
  0,
  0,
  0,
  0,
  0,
  0,
  0,
  0,
  0,
  0,
  0,
  0,
  0,
  0,
  1.03611116194063e-05,
  6.18055545621448e-05,
  0.000364305542574988,
  0.000353138877285851,
  0.00021799999806616,
  0.000126805553833644,
  0.000171333336167865,
  0.000332583321465386,
  0.000229611115323173,
  8.62499988741345e-05,
  4.7222222848278e-07,
  0,
  0,
  0,
  0,
  0,
  0,
  0,
  0,
  0,
  0,
  0,
  0,
  0,
  0,
  0,
  0,
  0,
  0,
  0,
  0,
  0,
  0,
  0,
  0,
  0,
  0,
  0,
  0,
  0,
  0,
  0,
  0,
  0,
  0,
  0,
  0,
  0,
  0,
  0,
  0,
  0,
  0,
  0,
  0,
  0,
  0,
  2.97222234722641e-06,
  7.49722205930286e-05,
  0.000315277775128682,
  6.05833323465453e-05,
  1.70833338052034e-05,
  0,
  4.99444454908371e-05,
  3.27499997284677e-05,
  0,
  0,
  0,
  0,
  1.17500002185504e-05,
  1.38888895485757e-07,
  3.47222227396237e-06,
  1.66666674582909e-07,
  3.42222220367855e-05,
  7.36666636334525e-05,
  0.000293444428178999,
  0.000174527780877219,
  0.000109611112210486,
  0.000421472224924299,
  0.00133205559518602,
  0.000579638878504435,
  0.000233194447225995,
  0,
  0.00021977777282397,
  0.000521638890107473,
  0.00153711107042101,
  0.00179700003729926,
  0.000446749991840786,
  4.65833312935299e-05,
  0,
  0,
  0,
  0,
  0,
  0,
  0,
  0,
  0,
  0,
  0,
  0,
  0,
  0,
  0,
  0,
  0,
  0,
  0,
  0,
  0,
  0,
  0,
  0,
  0,
  0,
  0,
  0,
  0,
  0,
  0,
  0,
  0,
  0,
  0,
  0,
  0,
  0,
  0,
  0,
  0,
  0,
  0,
  0,
  0,
  0,
  0,
  0,
  0,
  0,
  1.94444437511265e-07,
  4.78611100051138e-05,
  0.000415833327505324,
  0,
  0,
  0,
  0,
  0,
  0,
  0,
  0.000198972225189209,
  0,
  0,
  0,
  0,
  0,
  0,
  0.000517388880252838,
  0.00247372229894002,
  0.000248944444788827,
  8.94444477226999e-06,
  5.55555541521042e-08,
  0,
  0,
  9.95555520057678e-05,
  0.00153886106279161,
  0.00320077790154351,
  0.000206527776188321,
  0.000202388895882501,
  3.56111096011268e-05,
  0,
  2.26666674845748e-05,
  0,
  0,
  0,
  0,
  0,
  0,
  0,
  0,
  0.000136472218566471,
  0.00042383333047231,
  0.00016208334101571,
  0,
  0,
  0,
  0,
  0,
  0,
  0,
  0,
  0,
  4.8027779493067e-05,
  0,
  2.53888881868786e-05,
  0,
  0,
  0,
  0,
  0,
  6.59999996423721e-05,
  0.0013613055811988,
  2.4166667006082e-06,
  0,
  1.75277785294586e-05,
  1.37499999254942e-05,
  1.36944444643127e-05,
  2.25000005836288e-06,
  0,
  0,
  0,
  0,
  0.000100638891259829,
  3.89722237984339e-05,
  2.3944444126553e-05,
  0,
  0,
  0,
  0,
  0,
  0,
  0,
  0,
  0,
  2.07222232388126e-05,
  0,
  0,
  6.49999982366959e-06,
  0.000108888886041111,
  0.00013930555846956,
  0.000118250002463659,
  4.14999988343981e-05,
  4.95277759101656e-05 ;
}
