netcdf \2014-05 {
dimensions:
	time = 744 ;
	lat = 1 ;
	lon = 1 ;
	scalar = 1 ;
variables:
	double time(time) ;
		time:long_name = "Time axis" ;
		time:units = "days since 2014-05-01 00:00:00" ;
		time:calendar = "noleap" ;
	double LONGXY(lat, lon) ;
		LONGXY:long_name = "longitude" ;
		LONGXY:units = "degrees E" ;
	double LATIXY(lat, lon) ;
		LATIXY:long_name = "laititude" ;
		LATIXY:units = "degrees N" ;
	double ZBOT(time, lat, lon) ;
		ZBOT:long_name = "observational height" ;
		ZBOT:units = "m" ;
	double EDGEW(scalar) ;
		EDGEW:long_name = "western edge in atmospheric data" ;
		EDGEW:units = "degrees E" ;
	double EDGEE(scalar) ;
		EDGEE:long_name = "eastern edge in atmospheric data" ;
		EDGEE:units = "degrees E" ;
	double EDGES(scalar) ;
		EDGES:long_name = "southern edge in atmospheric data" ;
		EDGES:units = "degrees N" ;
	double EDGEN(scalar) ;
		EDGEN:long_name = "northern edge in atmospheric data" ;
		EDGEN:units = "degrees N" ;
	double TBOT(time, lat, lon) ;
		TBOT:long_name = "temperature at the lowest atm level (TBOT)" ;
		TBOT:units = "K" ;
	double RH(time, lat, lon) ;
		RH:long_name = "relative humidity at the lowest atm level (RH)" ;
		RH:units = "%" ;
	double WIND(time, lat, lon) ;
		WIND:long_name = "wind at the lowest atm level (WIND)" ;
		WIND:units = "m/s" ;
	double FSDS(time, lat, lon) ;
		FSDS:long_name = "incident solar (FSDS)" ;
		FSDS:units = "W/m2" ;
	double FLDS(time, lat, lon) ;
		FLDS:long_name = "incident longwave (FLDS)" ;
		FLDS:units = "W/m2" ;
	double PSRF(time, lat, lon) ;
		PSRF:long_name = "pressure at the lowest atm level (PSRF)" ;
		PSRF:units = "Pa" ;
	double PRECTmms(time, lat, lon) ;
		PRECTmms:long_name = "precipitation (PRECTmms)" ;
		PRECTmms:units = "mm/s" ;

// global attributes:
		:site_location = "Latitude:   42.73   Longitude:   283.34 Elevation (m):   256." ;
data:

 time = 0, 0.0416666666666667, 0.0833333333333333, 0.125, 0.166666666666667, 
    0.208333333333333, 0.25, 0.291666666666667, 0.333333333333333, 0.375, 
    0.416666666666667, 0.458333333333333, 0.5, 0.541666666666667, 
    0.583333333333333, 0.625, 0.666666666666667, 0.708333333333333, 0.75, 
    0.791666666666667, 0.833333333333333, 0.875, 0.916666666666667, 
    0.958333333333333, 1, 1.04166666666667, 1.08333333333333, 1.125, 
    1.16666666666667, 1.20833333333333, 1.25, 1.29166666666667, 
    1.33333333333333, 1.375, 1.41666666666667, 1.45833333333333, 1.5, 
    1.54166666666667, 1.58333333333333, 1.625, 1.66666666666667, 
    1.70833333333333, 1.75, 1.79166666666667, 1.83333333333333, 1.875, 
    1.91666666666667, 1.95833333333333, 2, 2.04166666666667, 
    2.08333333333333, 2.125, 2.16666666666667, 2.20833333333333, 2.25, 
    2.29166666666667, 2.33333333333333, 2.375, 2.41666666666667, 
    2.45833333333333, 2.5, 2.54166666666667, 2.58333333333333, 2.625, 
    2.66666666666667, 2.70833333333333, 2.75, 2.79166666666667, 
    2.83333333333333, 2.875, 2.91666666666667, 2.95833333333333, 3, 
    3.04166666666667, 3.08333333333333, 3.125, 3.16666666666667, 
    3.20833333333333, 3.25, 3.29166666666667, 3.33333333333333, 3.375, 
    3.41666666666667, 3.45833333333333, 3.5, 3.54166666666667, 
    3.58333333333333, 3.625, 3.66666666666667, 3.70833333333333, 3.75, 
    3.79166666666667, 3.83333333333333, 3.875, 3.91666666666667, 
    3.95833333333333, 4, 4.04166666666667, 4.08333333333333, 4.125, 
    4.16666666666667, 4.20833333333333, 4.25, 4.29166666666667, 
    4.33333333333333, 4.375, 4.41666666666667, 4.45833333333333, 4.5, 
    4.54166666666667, 4.58333333333333, 4.625, 4.66666666666667, 
    4.70833333333333, 4.75, 4.79166666666667, 4.83333333333333, 4.875, 
    4.91666666666667, 4.95833333333333, 5, 5.04166666666667, 
    5.08333333333333, 5.125, 5.16666666666667, 5.20833333333333, 5.25, 
    5.29166666666667, 5.33333333333333, 5.375, 5.41666666666667, 
    5.45833333333333, 5.5, 5.54166666666667, 5.58333333333333, 5.625, 
    5.66666666666667, 5.70833333333333, 5.75, 5.79166666666667, 
    5.83333333333333, 5.875, 5.91666666666667, 5.95833333333333, 6, 
    6.04166666666667, 6.08333333333333, 6.125, 6.16666666666667, 
    6.20833333333333, 6.25, 6.29166666666667, 6.33333333333333, 6.375, 
    6.41666666666667, 6.45833333333333, 6.5, 6.54166666666667, 
    6.58333333333333, 6.625, 6.66666666666667, 6.70833333333333, 6.75, 
    6.79166666666667, 6.83333333333333, 6.875, 6.91666666666667, 
    6.95833333333333, 7, 7.04166666666667, 7.08333333333333, 7.125, 
    7.16666666666667, 7.20833333333333, 7.25, 7.29166666666667, 
    7.33333333333333, 7.375, 7.41666666666667, 7.45833333333333, 7.5, 
    7.54166666666667, 7.58333333333333, 7.625, 7.66666666666667, 
    7.70833333333333, 7.75, 7.79166666666667, 7.83333333333333, 7.875, 
    7.91666666666667, 7.95833333333333, 8, 8.04166666666667, 
    8.08333333333333, 8.125, 8.16666666666667, 8.20833333333333, 8.25, 
    8.29166666666667, 8.33333333333333, 8.375, 8.41666666666667, 
    8.45833333333333, 8.5, 8.54166666666667, 8.58333333333333, 8.625, 
    8.66666666666667, 8.70833333333333, 8.75, 8.79166666666667, 
    8.83333333333333, 8.875, 8.91666666666667, 8.95833333333333, 9, 
    9.04166666666667, 9.08333333333333, 9.125, 9.16666666666667, 
    9.20833333333333, 9.25, 9.29166666666667, 9.33333333333333, 9.375, 
    9.41666666666667, 9.45833333333333, 9.5, 9.54166666666667, 
    9.58333333333333, 9.625, 9.66666666666667, 9.70833333333333, 9.75, 
    9.79166666666667, 9.83333333333333, 9.875, 9.91666666666667, 
    9.95833333333333, 10, 10.0416666666667, 10.0833333333333, 10.125, 
    10.1666666666667, 10.2083333333333, 10.25, 10.2916666666667, 
    10.3333333333333, 10.375, 10.4166666666667, 10.4583333333333, 10.5, 
    10.5416666666667, 10.5833333333333, 10.625, 10.6666666666667, 
    10.7083333333333, 10.75, 10.7916666666667, 10.8333333333333, 10.875, 
    10.9166666666667, 10.9583333333333, 11, 11.0416666666667, 
    11.0833333333333, 11.125, 11.1666666666667, 11.2083333333333, 11.25, 
    11.2916666666667, 11.3333333333333, 11.375, 11.4166666666667, 
    11.4583333333333, 11.5, 11.5416666666667, 11.5833333333333, 11.625, 
    11.6666666666667, 11.7083333333333, 11.75, 11.7916666666667, 
    11.8333333333333, 11.875, 11.9166666666667, 11.9583333333333, 12, 
    12.0416666666667, 12.0833333333333, 12.125, 12.1666666666667, 
    12.2083333333333, 12.25, 12.2916666666667, 12.3333333333333, 12.375, 
    12.4166666666667, 12.4583333333333, 12.5, 12.5416666666667, 
    12.5833333333333, 12.625, 12.6666666666667, 12.7083333333333, 12.75, 
    12.7916666666667, 12.8333333333333, 12.875, 12.9166666666667, 
    12.9583333333333, 13, 13.0416666666667, 13.0833333333333, 13.125, 
    13.1666666666667, 13.2083333333333, 13.25, 13.2916666666667, 
    13.3333333333333, 13.375, 13.4166666666667, 13.4583333333333, 13.5, 
    13.5416666666667, 13.5833333333333, 13.625, 13.6666666666667, 
    13.7083333333333, 13.75, 13.7916666666667, 13.8333333333333, 13.875, 
    13.9166666666667, 13.9583333333333, 14, 14.0416666666667, 
    14.0833333333333, 14.125, 14.1666666666667, 14.2083333333333, 14.25, 
    14.2916666666667, 14.3333333333333, 14.375, 14.4166666666667, 
    14.4583333333333, 14.5, 14.5416666666667, 14.5833333333333, 14.625, 
    14.6666666666667, 14.7083333333333, 14.75, 14.7916666666667, 
    14.8333333333333, 14.875, 14.9166666666667, 14.9583333333333, 15, 
    15.0416666666667, 15.0833333333333, 15.125, 15.1666666666667, 
    15.2083333333333, 15.25, 15.2916666666667, 15.3333333333333, 15.375, 
    15.4166666666667, 15.4583333333333, 15.5, 15.5416666666667, 
    15.5833333333333, 15.625, 15.6666666666667, 15.7083333333333, 15.75, 
    15.7916666666667, 15.8333333333333, 15.875, 15.9166666666667, 
    15.9583333333333, 16, 16.0416666666667, 16.0833333333333, 16.125, 
    16.1666666666667, 16.2083333333333, 16.25, 16.2916666666667, 
    16.3333333333333, 16.375, 16.4166666666667, 16.4583333333333, 16.5, 
    16.5416666666667, 16.5833333333333, 16.625, 16.6666666666667, 
    16.7083333333333, 16.75, 16.7916666666667, 16.8333333333333, 16.875, 
    16.9166666666667, 16.9583333333333, 17, 17.0416666666667, 
    17.0833333333333, 17.125, 17.1666666666667, 17.2083333333333, 17.25, 
    17.2916666666667, 17.3333333333333, 17.375, 17.4166666666667, 
    17.4583333333333, 17.5, 17.5416666666667, 17.5833333333333, 17.625, 
    17.6666666666667, 17.7083333333333, 17.75, 17.7916666666667, 
    17.8333333333333, 17.875, 17.9166666666667, 17.9583333333333, 18, 
    18.0416666666667, 18.0833333333333, 18.125, 18.1666666666667, 
    18.2083333333333, 18.25, 18.2916666666667, 18.3333333333333, 18.375, 
    18.4166666666667, 18.4583333333333, 18.5, 18.5416666666667, 
    18.5833333333333, 18.625, 18.6666666666667, 18.7083333333333, 18.75, 
    18.7916666666667, 18.8333333333333, 18.875, 18.9166666666667, 
    18.9583333333333, 19, 19.0416666666667, 19.0833333333333, 19.125, 
    19.1666666666667, 19.2083333333333, 19.25, 19.2916666666667, 
    19.3333333333333, 19.375, 19.4166666666667, 19.4583333333333, 19.5, 
    19.5416666666667, 19.5833333333333, 19.625, 19.6666666666667, 
    19.7083333333333, 19.75, 19.7916666666667, 19.8333333333333, 19.875, 
    19.9166666666667, 19.9583333333333, 20, 20.0416666666667, 
    20.0833333333333, 20.125, 20.1666666666667, 20.2083333333333, 20.25, 
    20.2916666666667, 20.3333333333333, 20.375, 20.4166666666667, 
    20.4583333333333, 20.5, 20.5416666666667, 20.5833333333333, 20.625, 
    20.6666666666667, 20.7083333333333, 20.75, 20.7916666666667, 
    20.8333333333333, 20.875, 20.9166666666667, 20.9583333333333, 21, 
    21.0416666666667, 21.0833333333333, 21.125, 21.1666666666667, 
    21.2083333333333, 21.25, 21.2916666666667, 21.3333333333333, 21.375, 
    21.4166666666667, 21.4583333333333, 21.5, 21.5416666666667, 
    21.5833333333333, 21.625, 21.6666666666667, 21.7083333333333, 21.75, 
    21.7916666666667, 21.8333333333333, 21.875, 21.9166666666667, 
    21.9583333333333, 22, 22.0416666666667, 22.0833333333333, 22.125, 
    22.1666666666667, 22.2083333333333, 22.25, 22.2916666666667, 
    22.3333333333333, 22.375, 22.4166666666667, 22.4583333333333, 22.5, 
    22.5416666666667, 22.5833333333333, 22.625, 22.6666666666667, 
    22.7083333333333, 22.75, 22.7916666666667, 22.8333333333333, 22.875, 
    22.9166666666667, 22.9583333333333, 23, 23.0416666666667, 
    23.0833333333333, 23.125, 23.1666666666667, 23.2083333333333, 23.25, 
    23.2916666666667, 23.3333333333333, 23.375, 23.4166666666667, 
    23.4583333333333, 23.5, 23.5416666666667, 23.5833333333333, 23.625, 
    23.6666666666667, 23.7083333333333, 23.75, 23.7916666666667, 
    23.8333333333333, 23.875, 23.9166666666667, 23.9583333333333, 24, 
    24.0416666666667, 24.0833333333333, 24.125, 24.1666666666667, 
    24.2083333333333, 24.25, 24.2916666666667, 24.3333333333333, 24.375, 
    24.4166666666667, 24.4583333333333, 24.5, 24.5416666666667, 
    24.5833333333333, 24.625, 24.6666666666667, 24.7083333333333, 24.75, 
    24.7916666666667, 24.8333333333333, 24.875, 24.9166666666667, 
    24.9583333333333, 25, 25.0416666666667, 25.0833333333333, 25.125, 
    25.1666666666667, 25.2083333333333, 25.25, 25.2916666666667, 
    25.3333333333333, 25.375, 25.4166666666667, 25.4583333333333, 25.5, 
    25.5416666666667, 25.5833333333333, 25.625, 25.6666666666667, 
    25.7083333333333, 25.75, 25.7916666666667, 25.8333333333333, 25.875, 
    25.9166666666667, 25.9583333333333, 26, 26.0416666666667, 
    26.0833333333333, 26.125, 26.1666666666667, 26.2083333333333, 26.25, 
    26.2916666666667, 26.3333333333333, 26.375, 26.4166666666667, 
    26.4583333333333, 26.5, 26.5416666666667, 26.5833333333333, 26.625, 
    26.6666666666667, 26.7083333333333, 26.75, 26.7916666666667, 
    26.8333333333333, 26.875, 26.9166666666667, 26.9583333333333, 27, 
    27.0416666666667, 27.0833333333333, 27.125, 27.1666666666667, 
    27.2083333333333, 27.25, 27.2916666666667, 27.3333333333333, 27.375, 
    27.4166666666667, 27.4583333333333, 27.5, 27.5416666666667, 
    27.5833333333333, 27.625, 27.6666666666667, 27.7083333333333, 27.75, 
    27.7916666666667, 27.8333333333333, 27.875, 27.9166666666667, 
    27.9583333333333, 28, 28.0416666666667, 28.0833333333333, 28.125, 
    28.1666666666667, 28.2083333333333, 28.25, 28.2916666666667, 
    28.3333333333333, 28.375, 28.4166666666667, 28.4583333333333, 28.5, 
    28.5416666666667, 28.5833333333333, 28.625, 28.6666666666667, 
    28.7083333333333, 28.75, 28.7916666666667, 28.8333333333333, 28.875, 
    28.9166666666667, 28.9583333333333, 29, 29.0416666666667, 
    29.0833333333333, 29.125, 29.1666666666667, 29.2083333333333, 29.25, 
    29.2916666666667, 29.3333333333333, 29.375, 29.4166666666667, 
    29.4583333333333, 29.5, 29.5416666666667, 29.5833333333333, 29.625, 
    29.6666666666667, 29.7083333333333, 29.75, 29.7916666666667, 
    29.8333333333333, 29.875, 29.9166666666667, 29.9583333333333, 30, 
    30.0416666666667, 30.0833333333333, 30.125, 30.1666666666667, 
    30.2083333333333, 30.25, 30.2916666666667, 30.3333333333333, 30.375, 
    30.4166666666667, 30.4583333333333, 30.5, 30.5416666666667, 
    30.5833333333333, 30.625, 30.6666666666667, 30.7083333333333, 30.75, 
    30.7916666666667, 30.8333333333333, 30.875, 30.9166666666667, 
    30.9583333333333 ;

 PRECTmms =
  7.80000040928523e-05,
  0.000122166665063964,
  5.48055561052428e-05,
  6.04166669978036e-05,
  4.92222234606743e-05,
  1.40000000182125e-05,
  1.47222217896746e-06,
  0,
  0,
  2.0749999417199e-05,
  0,
  0,
  0,
  0,
  0,
  0,
  4.5555555779073e-06,
  0,
  0,
  0,
  0,
  0,
  0,
  0,
  0,
  0,
  0,
  0,
  0,
  0,
  0,
  0,
  0,
  0,
  0,
  0,
  0,
  0,
  0,
  0,
  0,
  0,
  0,
  0,
  0,
  0,
  0,
  0,
  0,
  0,
  0,
  0,
  0,
  0,
  0,
  0,
  0,
  0,
  0,
  0,
  0,
  0,
  0,
  0,
  0,
  0,
  0,
  0,
  0,
  0,
  0,
  0,
  0,
  0,
  0,
  0,
  0,
  0,
  0,
  0,
  0,
  0,
  0,
  0,
  0,
  0,
  0,
  0,
  0,
  0,
  0,
  0,
  0,
  0,
  0,
  0,
  0,
  0,
  0,
  0,
  0,
  0,
  0,
  0,
  0,
  0,
  0,
  0,
  0,
  0,
  0,
  0,
  0,
  0,
  0,
  0,
  0,
  0,
  0,
  0,
  0,
  0,
  0,
  0,
  0,
  0,
  0,
  0,
  0,
  0,
  0,
  0,
  0,
  0,
  0,
  0,
  0,
  0,
  0,
  0,
  0,
  0,
  0,
  0,
  0,
  0,
  0,
  0,
  0,
  0,
  0,
  0,
  0,
  0,
  0,
  0,
  0,
  0,
  0,
  0,
  0,
  0,
  0,
  0,
  0,
  0,
  0,
  0,
  0,
  0,
  0,
  0,
  0,
  0,
  0,
  0,
  0,
  0,
  0,
  0,
  0,
  0,
  0,
  0,
  0,
  2.1388888772991e-06,
  0,
  0,
  0,
  0,
  0,
  0,
  0,
  0,
  5.38611122303539e-05,
  2.38055549561977e-05,
  2.94444440967507e-05,
  6.58333342936304e-05,
  1.18333328929212e-05,
  0,
  0,
  0,
  0,
  0,
  0,
  0,
  0,
  0,
  0,
  0,
  0,
  0,
  0,
  0,
  0,
  0,
  0,
  0,
  0,
  0,
  0,
  0,
  0,
  0,
  0,
  0,
  0,
  0,
  0,
  0,
  0,
  0,
  0,
  0,
  0,
  0,
  0,
  0,
  0,
  0,
  0,
  0,
  0,
  0,
  0,
  0,
  0,
  0,
  0,
  0,
  0,
  0,
  0,
  0,
  0,
  0,
  2.72499997582701e-05,
  8.04166661368476e-05,
  0.000461277763048808,
  0.00107605556646983,
  0.000242888894346025,
  3.08611119786898e-05,
  1.9888888216681e-05,
  0,
  0,
  0,
  0,
  0,
  3.35000000066227e-05,
  6.13333326247003e-05,
  0.000168972214063009,
  0.000605305565728082,
  0.000381833348009321,
  7.97222213198741e-06,
  1.54722223265304e-05,
  4.92777758174472e-05,
  0.000234694447782305,
  0.000295138888888889,
  0.000529277788268195,
  0.00020433333184984,
  8.33333372914543e-08,
  0,
  2.26111109885905e-05,
  0.000407638880941603,
  0.00203413883845011,
  0.000597888893551297,
  0.00137705551253425,
  8.43055546283722e-05,
  1.71944447275665e-05,
  0,
  0,
  0,
  0,
  0,
  0,
  0,
  0,
  0,
  0,
  0,
  0,
  0,
  0,
  0,
  0,
  0,
  0,
  0,
  0,
  0,
  0,
  0,
  0,
  0,
  0,
  0,
  0,
  0,
  0,
  0,
  0,
  0,
  0,
  0,
  0,
  8.33333372914543e-08,
  1.38888895485757e-07,
  0,
  0,
  0,
  0,
  0,
  0,
  0,
  0,
  0,
  0,
  0,
  0,
  0,
  0,
  0,
  0,
  4.78611100051138e-05,
  0.000694694452815586,
  0.000400444434748756,
  4.5583335061868e-05,
  3.72222210797999e-06,
  0,
  0,
  0,
  0,
  0,
  0,
  0,
  0,
  6.38888900478681e-05,
  2.15555561913384e-05,
  0,
  1.38888895485757e-07,
  8.03333355320825e-05,
  9.69166639778349e-05,
  7.61388904518551e-05,
  1.24999994619025e-06,
  0,
  0,
  0,
  2.08333341611756e-05,
  0,
  0,
  0,
  0,
  0,
  0,
  0,
  1.30555553672214e-06,
  0,
  0,
  0,
  0,
  0,
  0,
  0,
  0,
  0,
  0,
  0,
  0,
  0,
  0,
  0,
  0,
  0,
  0,
  0,
  0,
  0,
  0,
  0,
  0,
  0,
  0,
  0,
  0,
  0,
  0,
  0,
  0,
  0,
  0,
  0,
  0,
  0,
  0,
  0,
  0,
  0,
  0,
  0,
  0,
  0,
  0,
  0,
  0,
  0,
  0,
  0,
  0,
  0,
  0,
  0,
  0,
  0,
  0,
  0,
  0,
  0,
  0,
  0,
  0,
  0,
  0,
  0,
  0,
  0,
  0,
  0,
  0,
  0,
  0,
  0,
  0,
  0,
  0,
  0,
  0,
  0,
  0,
  0,
  0,
  0.000121111108197106,
  4.08055550522274e-05,
  3.33333349165817e-07,
  0,
  0,
  0,
  0,
  0,
  0,
  0,
  0,
  0,
  0,
  0,
  0,
  0,
  0,
  0,
  0,
  0,
  0,
  0,
  0,
  0,
  0,
  1.11111108304208e-07,
  9.88888864715894e-06,
  1.37777781734864e-05,
  2.38888897001743e-06,
  0,
  2.05555555617644e-06,
  8.61111135842899e-07,
  0,
  0,
  0,
  0,
  0,
  0,
  0,
  0,
  0,
  0,
  0,
  0,
  0,
  0,
  0,
  0,
  0,
  0,
  0,
  0,
  0,
  0,
  0,
  0,
  0,
  0,
  2.76111107733515e-05,
  0.000211472229825126,
  0.000246361113256878,
  0.000254055559635162,
  0,
  0,
  0,
  0,
  0,
  0,
  0,
  0,
  0,
  0,
  0,
  0,
  0,
  0,
  0,
  0,
  0,
  0,
  0,
  0,
  0,
  0,
  0,
  0,
  0,
  0,
  0,
  0,
  0,
  0,
  0,
  0,
  0,
  0,
  0,
  0,
  0,
  0,
  0,
  0,
  0,
  0,
  0,
  0,
  0,
  0,
  0,
  0,
  0,
  0,
  0,
  0,
  0,
  0,
  0,
  0,
  0,
  8.33333372914543e-08,
  1.91666661865181e-05,
  1.38888895485757e-07,
  0,
  0,
  0,
  0.000127722223599752,
  5.3333333796925e-05,
  1.72777774019374e-05,
  1.33055552012391e-05,
  0.000254527777433395,
  0.000317833324273427,
  0.000177972217400869,
  0.000140416671832403,
  0.000125166666176584,
  0,
  0,
  0,
  0,
  0,
  0,
  0,
  7.27777783241537e-06,
  0.000737527807553609,
  0.00042683333158493,
  4.98055542508761e-05,
  4.98055542508761e-05,
  4.10555551449458e-05,
  1.50833330634567e-05,
  3.469444397423e-05,
  0,
  0,
  5.93055536349614e-05,
  0,
  0,
  0,
  7.96388917499118e-05,
  2.97222234722641e-06,
  0,
  0,
  0.000162861115402646,
  0,
  0,
  0,
  0,
  0,
  0,
  0,
  0,
  0,
  0,
  0,
  4.44444433216833e-07,
  0,
  0,
  0,
  0,
  0,
  0,
  0,
  0,
  0,
  0,
  0,
  0,
  0,
  0,
  0,
  0,
  0,
  0,
  0,
  0,
  0,
  0,
  0,
  0,
  0,
  0,
  0,
  0,
  0,
  0,
  0,
  0,
  0,
  0,
  0,
  0,
  0,
  0,
  0,
  0,
  0,
  0,
  0,
  1.94444450446301e-06,
  0,
  0,
  0,
  0,
  0,
  0,
  0,
  0,
  0,
  0,
  0,
  0,
  0,
  6.83333310816023e-06,
  0,
  0,
  0,
  0,
  0,
  0,
  0,
  0,
  0,
  0,
  0,
  0,
  0,
  0,
  0,
  0,
  0,
  0,
  0,
  0,
  0,
  0,
  0,
  0,
  0,
  0,
  0,
  0,
  0,
  0,
  0,
  0,
  0,
  0,
  0,
  0,
  0,
  0,
  0,
  0,
  0,
  0,
  0,
  0,
  0,
  0,
  0,
  0,
  0,
  1.14166664166583e-05,
  0.000358638895882501,
  0.000846888886557685,
  0.000416805545488993,
  0 ;
}
